time,x,y,v,delta,accel,cte,cost,power,energy
0.0,-7.53000020980835,142.19000244140625,0.34493735432766326,-0.026579801657241543,2.999999999999886,0.11462174081653655,0.16941171097863977,3.799694683526236,0.37996946835262363
0.1,-7.53000020980835,142.19000244140625,0.048614282161023356,-0.02460620969241762,2.99999999999978,0.11462174081653655,0.029419084851640683,0.5354880963338773,0.4335182779860114
0.2,-7.53000020980835,142.19000244140625,0.09207395464183303,-0.02586221654246247,2.999999999999715,0.11462174081653655,0.03678789682819736,1.0142007370086592,0.5349383516868773
0.30000000000000004,-7.529999732971191,142.19000244140625,0.06500789523144518,-0.024846782077741502,2.999999999999702,0.11462126397980087,0.031660028355633446,0.7160649373245943,0.6065448454193367
0.4,-7.529999732971191,142.19000244140625,0.036895893514177845,-0.024799000720224916,2.999999999999284,0.11462126397980087,0.02822117890312931,0.4064094355664336,0.6471857889759801
0.5,-7.529999732971191,142.19000244140625,0.01895351335420162,-0.02443037504667537,2.9999999999987907,0.11462126397980087,0.02700961974953908,0.20877345679729686,0.6680631346557098
0.6000000000000001,-7.529834270477295,142.2035675048828,0.6463534165798435,-0.026455459771704694,3.0,0.11443979474332033,0.5278748309565767,7.120922183765097,1.3801553530322195
0.7000000000000001,-7.52748966217041,142.3458709716797,2.0152089996813163,-0.022171194921228467,2.999999999999999,0.1119272828760218,4.898595607577977,22.237678618756323,3.6039232149078515
0.8,-7.523293495178223,142.60267639160156,2.9782890704697564,-0.014934834578737878,2.721454594486243,0.10742811168601152,10.667476222607585,30.03181637045242,6.607104851953094
0.9,-7.518179893493652,142.94482421875,3.7636261071396278,-0.007855778009642971,2.7060613053732023,0.2655443018681026,2.213455515937149,37.84569741014456,10.39167459296755
1.0,-7.512798309326172,143.359130859375,4.445156250097121,-0.0051296452019867125,2.037444373127512,0.09604087061679716,4.797757798373925,34.418406707571314,13.833515263724681
1.1,-7.506340026855469,143.8388214111328,5.083393535086871,-0.0016656305744975055,2.0141605355115226,0.3623328488060217,3.409201469470082,39.097433132717605,17.743258576996443
1.2000000000000002,-7.499803066253662,144.37181091308594,5.4037429415597265,-0.0012556561455836885,1.5281457949341903,0.08185367164226816,4.528166803552581,32.458216525876495,20.989080229584093
1.3,-7.493218421936035,144.92274475097656,5.606478974659103,0.00018057991957740686,1.7478783405921556,0.27754009495961385,2.386246395176038,38.04903653007028,24.79398388259112
1.4000000000000001,-7.486247539520264,145.50091552734375,5.910204053499572,0.0004028029900180222,1.2495925310489602,0.06696915303326019,3.3460217728013553,29.90420441182553,27.784404323773675
1.5,-7.479081630706787,146.10926818847656,6.197608734189637,0.0014209332159695357,1.3729168561809004,0.10011139680075033,2.043902093092814,34.139185178762716,31.198322841649947
1.6,-7.472028732299805,146.74319458007812,6.429276337268344,0.002050678887654305,1.5143619514852986,0.44983033815965684,1.4925041685511977,38.69033215148293,35.06735605679824
1.7000000000000002,-7.465037822723389,147.39788818359375,6.622134970566025,0.001895468271851077,1.0501137430875094,0.043526638282826484,1.5768908012682132,29.172499076051448,37.984605964403386
1.8,-7.4582343101501465,148.0700225830078,6.778240068033592,0.002415023634024592,1.2171980417977157,0.1253466163365497,0.758325355960608,33.8935482178003,41.37396078618342
1.9000000000000001,-7.451786994934082,148.75540161132812,6.894068297746014,0.0026803042362523307,1.3982518427377337,0.4356600205036077,0.5847089137315697,38.89491674467747,45.263452460651166
2.0,-7.445745468139648,149.4508514404297,6.984788470035732,0.002476435413776968,0.9826391470672201,0.02181787724490659,0.3059186034910387,29.28945065584012,48.192397526235176
2.1,-7.440135955810547,150.15426635742188,7.054290901704286,0.002673885807139437,1.1817375842555806,0.03902382572938757,0.022201996229321296,34.530368401071414,51.645434366342315
2.2,-7.43503475189209,150.8634796142578,7.104160136932272,0.002839541332037666,1.3867823420620493,0.32679478795254785,0.285281609702869,39.89740197074697,55.63517456341701
2.3000000000000003,-7.430503845214844,151.57723999023438,7.149214662218966,0.002579484080943265,0.9927396519919051,0.004073420555014815,0.04773179913106055,30.313092017052966,58.66648376512231
2.4000000000000004,-7.426498889923096,152.29541015625,7.189200393734755,0.0026662148802727944,1.1966495826523307,0.0007768469559087879,0.3720338003238209,35.63365343021692,62.229849108144
2.5,-7.423038959503174,153.0169219970703,7.218640095105427,0.0026965650656588114,1.4033525317424067,0.173306160393034,1.0438028113266484,41.016975754564704,66.33154668360048
2.6,-7.420152187347412,153.7413787841797,7.250610926929536,0.002636581712951232,1.6037381978223715,0.44886539815944076,2.232283025198255,46.300286742795244,70.96157535788001
2.7,-7.41782808303833,154.46994018554688,7.301663574227896,0.0023925938799794727,1.1977904021157149,0.01200715660320675,1.6814516202805045,36.27854498222371,74.58942985610238
2.8000000000000003,-7.416069984436035,155.20489501953125,7.373674414651378,0.002213270981077258,1.363488614274709,0.014630325206248773,2.551663177952052,40.950832089533044,78.68451306505568
2.9000000000000004,-7.414795398712158,155.94749450683594,7.451108923768632,0.0021161787841380447,1.519820773430792,0.2432501204415727,3.643882318396806,45.49975647288902,83.23448871234459
3.0,-7.413979530334473,156.69784545898438,7.531465590161111,0.0019495630015773104,1.6680579546167154,0.4926679070054794,5.073604868255896,49.94243179134663,88.22873189147924
3.1,-7.413609504699707,157.45700073242188,7.6275472698957545,0.0016804657041457121,1.2156085469818902,0.01974162168766939,4.149116181698237,38.55522521788612,92.08425441326786
3.2,-7.413698673248291,158.2267608642578,7.740045259337029,0.0015240998382522125,1.331066814322437,0.020558491646329204,5.082858649051062,42.31722315598379,96.31597672886623
3.3000000000000003,-7.414172172546387,159.0077667236328,7.847722792873373,0.0013583413362266137,1.439440345234547,0.18360675543054938,6.15205178034658,45.94717150443418,100.91069387930965
3.4000000000000004,-7.415024280548096,159.79855346679688,7.939524013420151,0.001168464303767834,1.5390701647148952,0.39218127641014106,7.526973654989289,49.309582425637736,105.84165212187342
3.5,-7.416196823120117,160.5982666015625,8.029718847744158,0.0010519150021576788,1.0711285116550282,0.020851700556114496,6.699045260769332,36.775382229991656,109.51919034487258
3.6,-7.417654037475586,161.40682983398438,8.112489439090542,0.0009088295188245783,1.1549276971918185,0.020346198456052764,7.8933674567741425,39.58694562036487,113.47788490690907
3.7,-7.419406414031982,162.22262573242188,8.177655822943388,0.0006883177800264471,1.2326589738943843,0.019554047496543586,9.253476247787928,42.172287830878574,117.69511368999693
3.8000000000000003,-7.421427249908447,163.04415893554688,8.228407697640854,0.0005157920973590257,1.3028877357164503,0.1471708374871618,10.818598001356271,44.49013538408504,122.14412722840544
3.9000000000000004,-7.4236159324646,163.8700408935547,8.268297124706919,0.0003800223116863404,1.3649763788596234,0.3205856979355089,12.654032903715516,46.529259476693866,126.79705317607483
4.0,-7.425952434539795,164.69970703125,8.304088886921518,0.0002397012496280416,1.4131170001233473,0.490709575252409,14.70876869263857,48.15398458373537,131.61245163444838
4.1000000000000005,-7.428416728973389,165.53292846679688,8.3408175767639,0.00024222545396590522,0.9634519352112844,0.01444009744072044,13.92569449396867,35.264943674067744,135.13894600185515
4.2,-7.430965423583984,166.36965942382812,8.371802970633064,2.8984860996106163e-05,0.9986019850517596,0.012876270379452567,15.796910716762916,36.4471353567598,138.78365953753112
4.3,-7.433538436889648,167.20851135253906,8.383996669823517,-4.563376360486421e-05,1.02947880534748,0.011290621108410677,17.911771830128494,37.414663987572474,142.52512593628836
4.4,-7.436102867126465,168.04750061035156,8.377403973414392,-5.3787685070296314e-05,0.9801449997668318,0.14297828511677985,20.33698420598513,35.934194903989685,146.11854542668732
4.5,-7.438647270202637,168.88499450683594,8.355336301500744,-0.00013897118939216907,0.9360064504343326,0.3052605765584454,22.186575456834532,34.533646306496884,149.57191005733702
4.6000000000000005,-7.441149711608887,169.71946716308594,8.3190977445488,-0.00025205958974993395,0.9064789263592189,0.47072336281781013,20.402530712187723,33.49948788236218,152.92185884557324
4.7,-7.443572998046875,170.5496063232422,8.269845191211079,-0.0002241113463617066,0.5177063901847497,0.005188669239318947,20.444418403314934,22.015237822883368,155.1233826278616
4.800000000000001,-7.445908069610596,171.374267578125,8.211614452782806,-0.0003832160649600057,0.5154256516114163,0.0038242585550443808,18.64180498661948,21.756054807237426,157.29898810858532
4.9,-7.448124885559082,172.1920623779297,8.127614856367451,-0.0004139645576609651,0.5413637590124479,0.002570021311980713,17.109925461762256,22.21669671926881,159.5206577805122
5.0,-7.450207233428955,172.99945068359375,8.010491061444906,-0.0019312935873590162,0.6050269771078852,0.19069011401459382,15.958140921660986,23.607257270715774,161.8813835075838
5.1000000000000005,-7.451805114746094,173.7940216064453,7.873624763620167,-0.0004290086606284828,0.6018628385198612,0.39611319756189883,15.13842774965493,23.032835560040247,164.18466706358782
5.2,-7.45318078994751,174.5740966796875,7.723623870713738,-0.00029544768293350977,0.3119360052236238,0.00031787001817961763,16.11695337930975,14.667991326426451,165.65146619623047
5.300000000000001,-7.454493999481201,175.3385467529297,7.559954193072035,-0.0011870567893326818,0.3778001271011273,9.555031158734664e-05,15.224814871119564,16.007255674441392,167.2521917636746
5.4,-7.455708026885986,176.08587646484375,7.383152650528015,-0.004773902359638369,0.45132354248681383,0.10425546053220797,14.434544513124452,17.437242132532056,168.99591597692782
5.5,-7.455873012542725,176.81515502929688,7.198752984348968,-0.011822954911216129,0.5496396882153808,0.37497641273911286,13.908710092218241,19.384024045058155,170.93431838143363
5.6000000000000005,-7.453396320343018,177.5257110595703,7.0121253063211295,-0.011935370340172191,0.31270037264073164,0.0031060899522743594,15.178714269608284,12.975298518453998,172.23184823327904
5.7,-7.448305606842041,178.21786499023438,6.829193939764977,-0.03757306114556241,0.7814233210740262,0.008042048704940493,14.297741974972485,23.755571593900438,174.60740539266908
5.800000000000001,-7.435986042022705,178.8917694091797,6.651740213581326,-0.054624698446857585,0.9068295536388046,0.2990404246304295,13.511637134241521,25.979915354820562,177.20539692815115
5.9,-7.412753582000732,179.54855346679688,6.492518903014041,-0.053851011153357546,0.684631298357258,0.04329343625933912,14.640951077396059,20.242266832919952,179.22962361144315
6.0,-7.379763126373291,180.1902313232422,6.355402003516163,-0.07179554630720125,0.8059464299094132,0.07613891969276466,13.276403457173714,22.458427660514833,181.47546637749463
6.1000000000000005,-7.338259220123291,180.81838989257812,6.230011632320076,-0.09257143979593797,0.9305385026916497,0.3898434890231521,12.101471346654046,24.683889712381347,183.94385534873277
6.2,-7.2823638916015625,181.43289184570312,6.110797628449052,-0.09013814376365095,0.7067465496004544,0.1732574033534345,12.77315809435387,19.381085058914394,185.88196385462422
6.300000000000001,-7.211639404296875,182.0350799560547,6.012153883325823,-0.11065738870161586,0.8325891024579389,0.28893672711673524,11.17142954196762,21.68104274569226,188.05006812919345
6.4,-7.124911785125732,182.6251983642578,5.916238701955605,-0.13300411149593244,0.9461661428937296,0.2858407937878953,11.870305565204475,23.653806921961838,190.41544882138965
6.5,-7.019036293029785,183.2025604248047,5.8274717980863935,-0.15641125880679901,1.0547012958432325,0.31727928699430574,10.112096597790138,25.482839133285257,192.96373273471818
6.6000000000000005,-6.89517068862915,183.76820373535156,5.7544030689341366,-0.17421421893465347,1.0974566011371127,0.4087169899574504,8.459272397690523,26.00056570886214,195.5637893056044
6.7,-6.7512946128845215,184.32142639160156,5.685502580893868,-0.16568773306171009,0.8850393934062615,0.18835640297885362,8.618111539462166,21.440343395428098,197.7078236451472
6.800000000000001,-6.585168361663818,184.86181640625,5.632046622629822,-0.1824605409140515,0.9370627614580977,0.16194714695016343,6.752961717529493,22.247555214252536,199.93257916657245
6.9,-6.396738052368164,185.3899688720703,5.59183102995011,-0.16937897821580336,0.7147432836793395,0.020152417805347864,6.91068372598967,17.725223689514785,201.70510153552394
7.0,-6.1873650550842285,185.90621948242188,5.557427353522362,-0.18800734669331945,0.7695754960805088,0.10918412313758864,5.05890796304719,18.672265288289715,203.57232806435292
7.1000000000000005,-5.957571983337402,186.40953063964844,5.5153890849220515,-0.21053985295134742,0.8432798146048472,0.5115820980110843,3.930380546403368,19.941220067396213,205.56645007109253
7.2,-5.7059760093688965,186.89601135253906,5.454907789969481,-0.19697392921878726,0.6480922305598733,0.19402009559231387,3.717086042635246,15.978255699523576,207.1642756410449
7.300000000000001,-5.435669898986816,187.36587524414062,5.397442424859796,-0.2227110105925701,0.7648628516403786,0.4444573133664106,2.6507120623992986,17.999356810572735,208.96421132210216
7.4,-5.146364688873291,187.81546020507812,5.317707419909219,-0.2101466758607293,0.5946897775631194,0.18155075195260395,2.5835400281908445,14.543937670408619,210.41860508914303
7.5,-4.839268207550049,188.2436065673828,5.241536216895809,-0.23893563486770034,0.7755451976848814,0.36347634702795584,1.6381056767477309,17.63281261296181,212.1818863504392
7.6000000000000005,-4.515224933624268,188.64840698242188,5.156232388011933,-0.22524390638252484,0.6157994974523147,0.06546327617358064,1.6083143728226017,14.440535299515872,213.6259398803908
7.7,-4.177347183227539,189.03128051757812,5.076523823123024,-0.25672900089414347,0.8619447290651011,0.3224556862058224,0.8790929404261939,18.57048212068737,215.48298809245955
7.800000000000001,-3.819230794906616,189.3914794921875,5.112345979303804,-0.2349730648120853,0.6330449486286276,0.11424430369175564,0.6368924436586428,14.614914564968892,216.94447954895645
7.9,-3.4421818256378174,189.7302703857422,5.1053799052282365,-0.25361202572368413,0.8293885645718512,0.3544592435973085,0.3152188357758617,18.101650336131954,218.75464458256965
8.0,-3.045231580734253,190.04798889160156,5.089138975789598,-0.2346988815262455,0.6353369231840919,0.23588436421279918,0.17529956741661312,14.583492503174524,220.2129938328871
8.1,-2.6382250785827637,190.3460235595703,5.042159551174572,-0.2572941253190286,0.9076549363404779,0.3542538579507321,0.4767472045919691,19.242856388564185,222.1372794717435
8.200000000000001,-2.2175469398498535,190.6246795654297,5.072333760354354,-0.23786432420044695,0.6793620897660144,0.23889610800005198,0.3544833562627891,15.312677193018988,223.6685471910454
8.3,-1.782820224761963,190.87855529785156,5.038361401103653,-0.2559991805162494,0.9905761314899764,0.27951724240387155,0.5612302011509259,20.689670244650696,225.7375142155105
8.4,-1.3339755535125732,191.10833740234375,5.070371403408433,-0.23378902230499662,0.7627176133884508,0.1383640826689036,0.4604737758083944,16.78551072756966,227.41606528826745
8.5,-0.8737058043479919,191.31446838378906,5.060442241070632,-0.27113491576641713,1.6395701848363944,0.15979916087417018,0.1910647821548972,32.2805621576296,230.6441215040304
8.6,-0.4025385081768036,191.4943389892578,5.078362408670948,-0.24622979983535115,1.4281203123246233,0.05606055364901682,0.10918327946627848,28.641029263701952,233.50822443040062
8.700000000000001,0.07917796820402145,191.6531982421875,5.140621110034907,-0.24145147654530033,1.7368079510193746,0.23780633899116577,0.6320125049329077,34.5621443410854,236.96443886450916
8.8,0.5662006735801697,191.7909393310547,5.1002475105615135,-0.2218527273974893,1.5545799873389692,0.2997384063647383,0.7201569516696711,31.0274390000206,240.06718276451122
8.9,1.0668827295303345,191.91009521484375,5.154402742627029,-0.2126522004059469,1.8660750749959554,0.4465671070238891,1.7977758978993053,36.990418268288494,243.76622459134006
9.0,1.5711822509765625,192.0109100341797,5.182437674571157,-0.1910689423872177,1.6233467411084292,0.503684914893546,1.8129153522597272,32.79623348503003,247.04584793984307
9.1,2.0866384506225586,192.09130859375,5.287314901175414,-0.17435911681557353,1.897710042057127,0.5956798129559499,3.0337177093608134,38.565638256723226,250.90241176551538
9.200000000000001,2.6186702251434326,192.153564453125,5.4456972802935795,-0.1482982847486461,1.5479341138395082,0.6296483581396894,2.606803147015984,33.09953038290521,254.2123648038059
9.3,3.1702516078948975,192.2036895751953,5.636130220024533,-0.1295574543275091,1.7434113548698498,0.6743325518202694,3.502365108920788,38.1713567809027,258.0295004818962
9.4,3.7428102493286133,192.2427520751953,5.839863474478973,-0.11162245056473334,1.9190100837848292,0.8575057261259246,4.834100794579162,43.20722222383845,262.35022270428004
9.5,4.337568283081055,192.27029418945312,6.0622068782041225,-0.09466145202122922,1.481727987888139,0.7191886594671353,3.5602131222590585,35.65274606339997,265.91549731062
9.600000000000001,4.955709934234619,192.28697204589844,6.289767730683557,-0.07963518247438399,1.6165177495829897,0.7324596526754231,3.2636635981976507,40.04498179145954,269.919995489766
9.700000000000001,5.596032619476318,192.2904510498047,6.503901916659292,-0.0649649769161439,1.7523013800852942,0.7356452140846301,3.851742659012445,44.58654648830717,274.3786501385967
9.8,6.257871627807617,192.28414916992188,6.71779851817792,-0.052012854473595424,1.8704410710027906,0.7937689159505096,4.608660510652827,48.92371094232529,279.27102123282924
9.9,6.940679550170898,192.2674560546875,6.926773403343869,-0.04318049652346032,1.3881394027421579,0.712034006978235,3.576858004327986,38.849611026800346,283.1559823355093
10.0,7.643980026245117,192.24249267578125,7.128439574547451,-0.03327610844368614,1.4863378562347225,0.6867483275863107,4.054022638996816,42.529691096998,287.4089514452091
10.100000000000001,8.366247177124023,192.21121215820312,7.311394078818267,-0.025052330009263223,1.5825595230115033,0.6866456828631401,4.676947403020924,46.178180814714324,292.02676952668054
10.200000000000001,9.10555648803711,192.1725616455078,7.478715722032392,-0.01740037361101161,1.6651069831788796,0.7727201967888907,5.624862636789825,49.48637973453763,296.9754075001343
10.3,9.860822677612305,192.12741088867188,7.638443892664032,-0.014025006031352018,1.173187211171235,0.5706506350429872,4.376775125164335,37.48241540014738,300.72364904014904
10.4,10.631143569946289,192.07821655273438,7.781452617441746,-0.008254890536680144,1.2392762007659985,0.5211032875658159,5.026608481621853,40.06819065884035,304.7304681060331
10.5,11.414071083068848,192.0264434814453,7.895864981072209,-0.003307582076549812,1.3048319239526474,0.49483275426874673,5.896337567743173,42.53838579998519,308.9843066860316
10.600000000000001,12.206979751586914,191.9732208251953,7.986496265039835,0.0006353277627200249,1.3619791932098613,0.5529602467444468,7.10992693847691,44.68040844616049,313.4523475306476
10.700000000000001,13.008111000061035,191.9196014404297,8.063377192990307,0.000900801861599076,0.9011958063217441,0.36139889365233624,6.337500088778124,32.155125698477256,316.6678601004953
10.8,13.816537857055664,191.8656768798828,8.133485760887142,0.004138614966179684,0.9507792283533049,0.3071038591554835,7.491788985498435,33.89146161652143,320.05700626214747
